Time,Position,theta,Force
0,-5.52005e-06,0.523611,0
0.001,-1.65601e-05,0.523635,0
0.002,-3.31199e-05,0.523671,0
0.003,-5.51991e-05,0.523719,0
0.004,-8.27971e-05,0.523778,0
0.005,-0.000115913,0.52385,0
0.006,-0.000154547,0.523934,0
0.007,-0.000198697,0.524029,0
0.008,-0.000248362,0.524137,0
0.009,-0.000303542,0.524256,0
0.01,-0.000364234,0.524388,0
0.011,-0.000430437,0.524531,0
0.012,-0.00050215,0.524686,0
0.013,-0.00057937,0.524854,0
0.014,-0.000662095,0.525033,0
0.015,-0.000750324,0.525224,0
0.016,-0.000844054,0.525427,0
0.017,-0.000943282,0.525642,0
0.018,-0.00104801,0.525869,0
0.019,-0.00115822,0.526108,0
0.02,-0.00127393,0.526359,0
0.021,-0.00139513,0.526622,0
0.022,-0.00152181,0.526897,0
0.023,-0.00165396,0.527183,0
0.024,-0.0017916,0.527482,0
0.025,-0.00193471,0.527793,0
0.026,-0.00208329,0.528115,0
0.027,-0.00223734,0.528449,0
0.028,-0.00239684,0.528796,0
0.029,-0.00256181,0.529154,0
0.03,-0.00273222,0.529524,0
0.031,-0.00290809,0.529906,0
0.032,-0.00308939,0.5303,0
0.033,-0.00327614,0.530706,0
0.034,-0.00346832,0.531124,0
0.035,-0.00366593,0.531554,0
0.036,-0.00386896,0.531995,0
0.037,-0.00407741,0.532449,0
0.038,-0.00429127,0.532914,0
0.039,-0.00451053,0.533392,0
0.04,-0.00473519,0.533881,0
0.041,-0.00496525,0.534382,0
0.042,-0.0052007,0.534895,0
0.043,-0.00544152,0.53542,0
0.044,-0.00568772,0.535956,0
0.045,-0.00593929,0.536505,0
0.046,-0.00619621,0.537065,0
0.047,-0.00645849,0.537638,0
0.048,-0.00672612,0.538222,0
0.049,-0.00699908,0.538818,0
0.05,-0.00727737,0.539426,0
0.051,-0.00756099,0.540046,0
0.052,-0.00784992,0.540677,0
0.053,-0.00814416,0.541321,0
0.054,-0.00844369,0.541976,0
0.055,-0.00874851,0.542643,0
0.056,-0.00905862,0.543322,0
0.057,-0.009374,0.544013,0
0.058,-0.00969464,0.544716,0
0.059,-0.0100205,0.54543,0
0.06,-0.0103517,0.546157,0
0.061,-0.010688,0.546895,0
0.062,-0.0110296,0.547645,0
0.063,-0.0113765,0.548406,0
0.064,-0.0117285,0.54918,0
0.065,-0.0120857,0.549965,0
0.066,-0.0124481,0.550762,0
0.067,-0.0128157,0.551571,0
0.068,-0.0131884,0.552391,0
0.069,-0.0135663,0.553224,0
0.07,-0.0139493,0.554068,0
0.071,-0.0143375,0.554924,0
0.072,-0.0147308,0.555791,0
0.073,-0.0151292,0.556671,0
0.074,-0.0155326,0.557562,0
0.075,-0.0159412,0.558464,0
0.076,-0.0163549,0.559379,0
0.077,-0.0167735,0.560305,0
0.078,-0.0171973,0.561243,0
0.079,-0.0176261,0.562193,0
0.08,-0.0180599,0.563154,0
0.081,-0.0184987,0.564127,0
0.082,-0.0189425,0.565112,0
0.083,-0.0193912,0.566108,0
0.084,-0.019845,0.567116,0
0.085,-0.0203037,0.568136,0
0.086,-0.0207673,0.569167,0
0.087,-0.0212359,0.57021,0
0.088,-0.0217094,0.571265,0
0.089,-0.0221877,0.572331,0
0.09,-0.022671,0.573409,0
0.091,-0.0231591,0.574499,0
0.092,-0.0236521,0.5756,0
0.093,-0.0241499,0.576712,0
0.094,-0.0246525,0.577837,0
0.095,-0.0251599,0.578972,0
0.096,-0.0256721,0.58012,0
0.097,-0.0261891,0.581279,0
0.098,-0.0267108,0.582449,0
0.099,-0.0272373,0.583631,0
0.1,-0.0277685,0.584825,0
0.101,-0.0283044,0.58603,0
0.102,-0.028845,0.587247,0
0.103,-0.0293903,0.588475,0
0.104,-0.0299402,0.589714,0
0.105,-0.0304947,0.590966,0
0.106,-0.0310539,0.592228,0
0.107,-0.0316176,0.593502,0
0.108,-0.032186,0.594788,0
0.109,-0.0327589,0.596085,0
0.11,-0.0333364,0.597393,0
0.111,-0.0339183,0.598713,0
0.112,-0.0345048,0.600044,0
0.113,-0.0350958,0.601387,0
0.114,-0.0356912,0.602741,0
0.115,-0.0362911,0.604106,0
0.116,-0.0368954,0.605483,0
0.117,-0.0375041,0.606871,0
0.118,-0.0381172,0.608271,0
0.119,-0.0387347,0.609681,0
0.12,-0.0393565,0.611104,0
0.121,-0.0399826,0.612537,0
0.122,-0.040613,0.613982,0
0.123,-0.0412477,0.615438,0
0.124,-0.0418867,0.616905,0
0.125,-0.0425299,0.618384,0
0.126,-0.0431773,0.619874,0
0.127,-0.043829,0.621375,0
0.128,-0.0444848,0.622887,0
0.129,-0.0451447,0.624411,0
0.13,-0.0458088,0.625946,0
0.131,-0.0464769,0.627491,0
0.132,-0.0471492,0.629049,0
0.133,-0.0478255,0.630617,0
0.134,-0.0485058,0.632196,0
0.135,-0.0491901,0.633787,0
0.136,-0.0498785,0.635389,0
0.137,-0.0505707,0.637002,0
0.138,-0.051267,0.638626,0
0.139,-0.0519671,0.640261,0
0.14,-0.0526711,0.641907,0
0.141,-0.053379,0.643564,0
0.142,-0.0540907,0.645232,0
0.143,-0.0548062,0.646911,0
0.144,-0.0555255,0.648602,0
0.145,-0.0562486,0.650303,0
0.146,-0.0569754,0.652015,0
0.147,-0.0577059,0.653739,0
0.148,-0.0584401,0.655473,0
0.149,-0.0591779,0.657218,0
0.15,-0.0599194,0.658974,0
0.151,-0.0606644,0.660741,0
0.152,-0.061413,0.662519,0
0.153,-0.0621652,0.664308,0
0.154,-0.0629209,0.666108,0
0.155,-0.0636801,0.667918,0
0.156,-0.0644427,0.66974,0
0.157,-0.0652088,0.671572,0
0.158,-0.0659782,0.673415,0
0.159,-0.0667511,0.675269,0
0.16,-0.0675273,0.677134,0
0.161,-0.0683068,0.679009,0
0.162,-0.0690896,0.680895,0
0.163,-0.0698756,0.682792,0
0.164,-0.0706649,0.6847,0
0.165,-0.0714574,0.686619,0
0.166,-0.072253,0.688548,0
0.167,-0.0730518,0.690487,0
0.168,-0.0738537,0.692438,0
0.169,-0.0746587,0.694399,0
0.17,-0.0754667,0.696371,0
0.171,-0.0762777,0.698353,0
0.172,-0.0770917,0.700346,0
0.173,-0.0779087,0.70235,0
0.174,-0.0787286,0.704364,0
0.175,-0.0795513,0.706388,0
0.176,-0.080377,0.708424,0
0.177,-0.0812054,0.710469,0
0.178,-0.0820366,0.712525,0
0.179,-0.0828706,0.714592,0
0.18,-0.0837074,0.716669,0
0.181,-0.0845468,0.718757,0
0.182,-0.0853889,0.720855,0
0.183,-0.0862336,0.722964,0
0.184,-0.0870809,0.725083,0
0.185,-0.0879308,0.727212,0
0.186,-0.0887832,0.729352,0
0.187,-0.089638,0.731502,0
0.188,-0.0904954,0.733662,0
0.189,-0.0913551,0.735833,0
0.19,-0.0922173,0.738014,0
0.191,-0.0930818,0.740205,0
0.192,-0.0939486,0.742407,0
0.193,-0.0948178,0.744619,0
0.194,-0.0956891,0.746841,0
0.195,-0.0965627,0.749073,0
0.196,-0.0974385,0.751316,0
0.197,-0.0983164,0.753568,0
0.198,-0.0991964,0.755831,0
0.199,-0.100078,0.758104,0
0.2,-0.100963,0.760388,0
0.201,-0.101849,0.762681,0
0.202,-0.102737,0.764985,0
0.203,-0.103627,0.767298,0
0.204,-0.104519,0.769622,0
0.205,-0.105412,0.771955,0
0.206,-0.106308,0.774299,0
0.207,-0.107205,0.776653,0
0.208,-0.108104,0.779017,0
0.209,-0.109005,0.781391,0
0.21,-0.109907,0.783774,0
0.211,-0.110811,0.786168,0
0.212,-0.111717,0.788572,0
0.213,-0.112624,0.790986,0
0.214,-0.113533,0.793409,0
0.215,-0.114443,0.795843,0
0.216,-0.115355,0.798286,0
0.217,-0.116268,0.800739,0
0.218,-0.117182,0.803202,0
0.219,-0.118098,0.805675,0
0.22,-0.119015,0.808158,0
0.221,-0.119933,0.81065,0
0.222,-0.120852,0.813153,0
0.223,-0.121773,0.815665,0
0.224,-0.122694,0.818187,0
0.225,-0.123617,0.820718,0
0.226,-0.124541,0.823259,0
0.227,-0.125466,0.825811,0
0.228,-0.126391,0.828371,0
0.229,-0.127318,0.830942,0
0.23,-0.128245,0.833522,0
0.231,-0.129174,0.836111,0
0.232,-0.130103,0.838711,0
0.233,-0.131033,0.84132,0
0.234,-0.131963,0.843938,0
0.235,-0.132895,0.846567,0
0.236,-0.133826,0.849204,0
0.237,-0.134759,0.851852,0
0.238,-0.135692,0.854509,0
0.239,-0.136625,0.857175,0
0.24,-0.137559,0.859851,0
0.241,-0.138494,0.862536,0
0.242,-0.139428,0.865231,0
0.243,-0.140363,0.867936,0
0.244,-0.141299,0.87065,0
0.245,-0.142234,0.873373,0
0.246,-0.14317,0.876106,0
0.247,-0.144106,0.878848,0
0.248,-0.145042,0.881599,0
0.249,-0.145978,0.88436,0
0.25,-0.146914,0.887131,0
0.251,-0.147851,0.889911,0
0.252,-0.148787,0.8927,0
0.253,-0.149723,0.895498,0
0.254,-0.150659,0.898306,0
0.255,-0.151594,0.901123,0
0.256,-0.15253,0.903949,0
0.257,-0.153465,0.906785,0
0.258,-0.1544,0.90963,0
0.259,-0.155334,0.912484,0
0.26,-0.156268,0.915348,0
0.261,-0.157202,0.918221,0
0.262,-0.158135,0.921103,0
0.263,-0.159067,0.923994,0
0.264,-0.159999,0.926895,0
0.265,-0.16093,0.929804,0
0.266,-0.161861,0.932723,0
0.267,-0.162791,0.935651,0
0.268,-0.16372,0.938588,0
0.269,-0.164648,0.941535,0
0.27,-0.165575,0.94449,0
0.271,-0.166502,0.947455,0
0.272,-0.167427,0.950429,0
0.273,-0.168352,0.953412,0
0.274,-0.169275,0.956404,0
0.275,-0.170198,0.959405,0
0.276,-0.171119,0.962415,0
0.277,-0.172039,0.965435,0
0.278,-0.172957,0.968463,0
0.279,-0.173875,0.971501,0
0.28,-0.174791,0.974547,0
0.281,-0.175706,0.977603,0
0.282,-0.176619,0.980668,0
0.283,-0.177531,0.983742,0
0.284,-0.178441,0.986824,0
0.285,-0.17935,0.989916,0
0.286,-0.180257,0.993017,0
0.287,-0.181162,0.996127,0
0.288,-0.182066,0.999246,0
0.289,-0.182968,1.00237,0
0.29,-0.183868,1.00551,0
0.291,-0.184767,1.00866,0
0.292,-0.185663,1.01181,0
0.293,-0.186557,1.01497,0
0.294,-0.18745,1.01815,0
0.295,-0.18834,1.02133,0
0.296,-0.189228,1.02452,0
0.297,-0.190114,1.02772,0
0.298,-0.190998,1.03093,0
0.299,-0.19188,1.03415,0
0.3,-0.192759,1.03737,0
0.301,-0.193636,1.04061,0
0.302,-0.194511,1.04385,0
0.303,-0.195383,1.04711,0
0.304,-0.196252,1.05037,0
0.305,-0.197119,1.05364,0
0.306,-0.197984,1.05692,0
0.307,-0.198846,1.06021,0
0.308,-0.199705,1.06351,0
0.309,-0.200561,1.06681,0
0.31,-0.201414,1.07013,0
0.311,-0.202265,1.07345,0
0.312,-0.203113,1.07679,0
0.313,-0.203958,1.08013,0
0.314,-0.204799,1.08348,0
0.315,-0.205638,1.08684,0
0.316,-0.206474,1.09021,0
0.317,-0.207306,1.09359,0
0.318,-0.208135,1.09698,0
0.319,-0.208961,1.10037,0
0.32,-0.209784,1.10378,0
0.321,-0.210603,1.10719,0
0.322,-0.211419,1.11062,0
0.323,-0.212231,1.11405,0
0.324,-0.21304,1.11749,0
0.325,-0.213845,1.12094,0
0.326,-0.214646,1.1244,0
0.327,-0.215444,1.12787,0
0.328,-0.216238,1.13134,0
0.329,-0.217029,1.13483,0
0.33,-0.217815,1.13832,0
0.331,-0.218598,1.14183,0
0.332,-0.219376,1.14534,0
0.333,-0.220151,1.14886,0
0.334,-0.220921,1.15239,0
0.335,-0.221687,1.15593,0
0.336,-0.22245,1.15948,0
0.337,-0.223208,1.16304,0
0.338,-0.223961,1.1666,0
0.339,-0.224711,1.17018,0
0.34,-0.225455,1.17376,0
0.341,-0.226196,1.17736,0
0.342,-0.226932,1.18096,0
0.343,-0.227663,1.18457,0
0.344,-0.22839,1.18819,0
0.345,-0.229112,1.19182,0
0.346,-0.229829,1.19546,0
0.347,-0.230542,1.19911,0
0.348,-0.231249,1.20277,0
0.349,-0.231952,1.20643,0
0.35,-0.23265,1.21011,0
0.351,-0.233343,1.21379,0
0.352,-0.234031,1.21749,0
0.353,-0.234713,1.22119,0
0.354,-0.235391,1.2249,0
0.355,-0.236063,1.22862,0
0.356,-0.236729,1.23235,0
0.357,-0.237391,1.23609,0
0.358,-0.238047,1.23984,0
0.359,-0.238698,1.2436,0
0.36,-0.239343,1.24737,0
0.361,-0.239982,1.25114,0
0.362,-0.240616,1.25493,0
0.363,-0.241244,1.25872,0
0.364,-0.241866,1.26253,0
0.365,-0.242482,1.26634,0
0.366,-0.243093,1.27017,0
0.367,-0.243697,1.274,0
0.368,-0.244296,1.27784,0
0.369,-0.244888,1.28169,0
0.37,-0.245474,1.28555,0
0.371,-0.246054,1.28942,0
0.372,-0.246628,1.2933,0
0.373,-0.247196,1.29719,0
0.374,-0.247757,1.30109,0
0.375,-0.248311,1.305,0
0.376,-0.248859,1.30892,0
0.377,-0.249401,1.31285,0
0.378,-0.249936,1.31678,0
0.379,-0.250464,1.32073,0
0.38,-0.250985,1.32469,0
0.381,-0.2515,1.32865,0
0.382,-0.252007,1.33263,0
0.383,-0.252508,1.33661,0
0.384,-0.253001,1.34061,0
0.385,-0.253488,1.34461,0
0.386,-0.253967,1.34863,0
0.387,-0.254439,1.35265,0
0.388,-0.254904,1.35669,0
0.389,-0.255362,1.36073,0
0.39,-0.255812,1.36479,0
0.391,-0.256254,1.36885,0
0.392,-0.256689,1.37293,0
0.393,-0.257116,1.37701,0
0.394,-0.257536,1.38111,0
0.395,-0.257948,1.38521,0
0.396,-0.258352,1.38933,0
0.397,-0.258748,1.39345,0
0.398,-0.259136,1.39759,0
0.399,-0.259516,1.40173,0
0.4,-0.259888,1.40589,0
0.401,-0.260252,1.41005,0
0.402,-0.260608,1.41423,0
0.403,-0.260955,1.41841,0
0.404,-0.261294,1.42261,0
0.405,-0.261624,1.42682,0
0.406,-0.261946,1.43104,0
0.407,-0.262259,1.43526,0
0.408,-0.262564,1.4395,0
0.409,-0.262859,1.44375,0
0.41,-0.263146,1.44801,0
0.411,-0.263424,1.45228,0
0.412,-0.263693,1.45657,0
0.413,-0.263953,1.46086,0
0.414,-0.264204,1.46516,0
0.415,-0.264446,1.46947,0
0.416,-0.264678,1.4738,0
0.417,-0.264901,1.47813,0
0.418,-0.265115,1.48248,0
0.419,-0.265319,1.48684,0
0.42,-0.265513,1.49121,0
0.421,-0.265698,1.49559,0
0.422,-0.265873,1.49998,0
0.423,-0.266038,1.50438,0
0.424,-0.266193,1.50879,0
0.425,-0.266338,1.51322,0
0.426,-0.266473,1.51765,0
0.427,-0.266598,1.5221,0
0.428,-0.266713,1.52656,0
0.429,-0.266818,1.53103,0
0.43,-0.266912,1.53551,0
0.431,-0.266995,1.54001,0
0.432,-0.267068,1.54451,0
0.433,-0.267131,1.54903,0
0.434,-0.267182,1.55356,0
0.435,-0.267223,1.5581,0
0.436,-0.267253,1.56265,0
0.437,-0.267272,1.56722,0
0.438,-0.267279,1.5718,0
0.439,-0.267276,1.57638,0
0.44,-0.267261,1.58099,0
0.441,-0.267235,1.5856,0
0.442,-0.267198,1.59022,0
0.443,-0.267149,1.59486,0
0.444,-0.267088,1.59951,0
0.445,-0.267015,1.60418,0
0.446,-0.266931,1.60885,0
0.447,-0.266835,1.61354,0
0.448,-0.266727,1.61824,0
0.449,-0.266607,1.62296,0
0.45,-0.266474,1.62768,0
0.451,-0.26633,1.63242,0
0.452,-0.266173,1.63717,0
0.453,-0.266003,1.64194,0
0.454,-0.265821,1.64672,0
0.455,-0.265626,1.65151,0
0.456,-0.265418,1.65632,0
0.457,-0.265198,1.66114,0
0.458,-0.264964,1.66597,0
0.459,-0.264718,1.67081,0
0.46,-0.264458,1.67567,0
0.461,-0.264185,1.68055,0
0.462,-0.263899,1.68544,0
0.463,-0.263599,1.69034,0
0.464,-0.263285,1.69525,0
0.465,-0.262958,1.70018,0
0.466,-0.262617,1.70513,0
0.467,-0.262261,1.71008,0
0.468,-0.261892,1.71506,0
0.469,-0.261509,1.72004,0
0.47,-0.261112,1.72504,0
0.471,-0.2607,1.73006,0
0.472,-0.260273,1.73509,0
0.473,-0.259832,1.74014,0
0.474,-0.259376,1.7452,0
0.475,-0.258906,1.75027,0
0.476,-0.25842,1.75536,0
0.477,-0.257919,1.76047,0
0.478,-0.257404,1.76559,0
0.479,-0.256872,1.77073,0
0.48,-0.256326,1.77588,0
0.481,-0.255763,1.78105,0
0.482,-0.255185,1.78624,0
0.483,-0.254592,1.79144,0
0.484,-0.253982,1.79665,0
0.485,-0.253356,1.80189,0
0.486,-0.252714,1.80714,0
0.487,-0.252056,1.8124,0
0.488,-0.251381,1.81768,0
0.489,-0.250689,1.82298,0
0.49,-0.249981,1.8283,0
0.491,-0.249256,1.83363,0
0.492,-0.248514,1.83898,0
0.493,-0.247754,1.84435,0
0.494,-0.246978,1.84974,0
0.495,-0.246184,1.85514,0
0.496,-0.245372,1.86056,0
0.497,-0.244543,1.866,0
0.498,-0.243695,1.87145,0
0.499,-0.24283,1.87693,0
0.5,-0.241947,1.88242,0
0.501,-0.241045,1.88793,0
0.502,-0.240124,1.89346,0
0.503,-0.239185,1.89901,0
0.504,-0.238228,1.90458,0
0.505,-0.237251,1.91016,0
0.506,-0.236255,1.91577,0
0.507,-0.23524,1.92139,0
0.508,-0.234206,1.92704,0
0.509,-0.233151,1.9327,0
0.51,-0.232077,1.93839,0
0.511,-0.230984,1.94409,0
0.512,-0.22987,1.94982,0
0.513,-0.228735,1.95556,0
0.514,-0.227581,1.96133,0
0.515,-0.226405,1.96712,0
0.516,-0.225209,1.97292,0
0.517,-0.223992,1.97875,0
0.518,-0.222754,1.9846,0
0.519,-0.221494,1.99048,0
0.52,-0.220213,1.99637,0
0.521,-0.21891,2.00229,0
0.522,-0.217585,2.00823,0
0.523,-0.216238,2.01419,0
0.524,-0.214868,2.02017,0
0.525,-0.213476,2.02618,0
0.526,-0.212061,2.03221,0
0.527,-0.210624,2.03826,0
0.528,-0.209163,2.04434,0
0.529,-0.207679,2.05044,0
0.53,-0.206171,2.05657,0
0.531,-0.20464,2.06272,0
0.532,-0.203085,2.06889,0
0.533,-0.201505,2.07509,0
0.534,-0.199901,2.08132,0
0.535,-0.198272,2.08757,0
0.536,-0.196619,2.09384,0
0.537,-0.19494,2.10014,0
0.538,-0.193236,2.10647,0
0.539,-0.191506,2.11283,0
0.54,-0.189751,2.11921,0
0.541,-0.187969,2.12562,0
0.542,-0.186161,2.13205,0
0.543,-0.184327,2.13852,0
0.544,-0.182466,2.14501,0
0.545,-0.180577,2.15153,0
0.546,-0.178662,2.15808,0
0.547,-0.176719,2.16465,0
0.548,-0.174747,2.17126,0
0.549,-0.172748,2.1779,0
0.55,-0.170721,2.18456,0
0.551,-0.168664,2.19126,0
0.552,-0.166579,2.19799,0
0.553,-0.164465,2.20474,0
0.554,-0.162321,2.21153,0
0.555,-0.160147,2.21835,0
0.556,-0.157943,2.22521,0
0.557,-0.155709,2.23209,0
0.558,-0.153444,2.23901,0
0.559,-0.151148,2.24596,0
0.56,-0.14882,2.25295,0
0.561,-0.146461,2.25997,0
0.562,-0.14407,2.26702,0
0.563,-0.141647,2.27411,0
0.564,-0.139191,2.28123,0
0.565,-0.136703,2.28839,0
0.566,-0.134181,2.29559,0
0.567,-0.131625,2.30282,0
0.568,-0.129036,2.31009,0
0.569,-0.126412,2.3174,0
0.57,-0.123753,2.32474,0
0.571,-0.12106,2.33212,0
0.572,-0.118331,2.33954,0
0.573,-0.115567,2.34701,0
0.574,-0.112766,2.35451,0
0.575,-0.109929,2.36205,0
0.576,-0.107056,2.36963,0
0.577,-0.104145,2.37725,0
0.578,-0.101196,2.38492,0
0.579,-0.0982101,2.39262,0
0.58,-0.0951854,2.40037,0
0.581,-0.092122,2.40817,0
0.582,-0.0890195,2.41601,0
0.583,-0.0858775,2.42389,0
0.584,-0.0826957,2.43181,0
0.585,-0.0794735,2.43979,0
0.586,-0.0762107,2.44781,0
0.587,-0.0729068,2.45587,0
0.588,-0.0695614,2.46398,0
0.589,-0.0661741,2.47214,0
0.59,-0.0627445,2.48035,0
0.591,-0.0592722,2.48861,0
0.592,-0.0557568,2.49692,0
0.593,-0.0521979,2.50528,0
0.594,-0.0485951,2.51369,0
0.595,-0.0449479,2.52215,0
0.596,-0.041256,2.53066,0
0.597,-0.037519,2.53922,0
0.598,-0.0337364,2.54784,0
0.599,-0.029908,2.55651,0
0.6,-0.0260332,2.56524,0
0.601,-0.0221118,2.57402,0
0.602,-0.0181433,2.58285,0
0.603,-0.0141274,2.59175,0
0.604,-0.0100638,2.6007,0
0.605,-0.00595207,2.6097,0
0.606,-0.00179189,2.61876,0
0.607,0.00241704,2.62789,0
0.608,0.00667504,2.63707,0
0.609,0.0109824,2.64631,0
0.61,0.0153393,2.65561,0
0.611,0.0197461,2.66496,0
0.612,0.024203,2.67438,0
0.613,0.0287102,2.68386,0
0.614,0.0332679,2.69341,0
0.615,0.0378762,2.70301,0
0.616,0.0425352,2.71267,0
0.617,0.0472451,2.7224,0
0.618,0.0520058,2.73219,0
0.619,0.0568174,2.74204,0
0.62,0.0616799,2.75196,0
0.621,0.0665931,2.76193,0
0.622,0.071557,2.77197,0
0.623,0.0765713,2.78207,0
0.624,0.0816359,2.79224,0
0.625,0.0867505,2.80247,0
0.626,0.0919147,2.81275,0
0.627,0.0971281,2.8231,0
0.628,0.10239,2.83351,0
0.629,0.107701,2.84398,0
0.63,0.113059,2.85451,0
0.631,0.118463,2.8651,0
0.632,0.123914,2.87575,0
0.633,0.12941,2.88645,0
0.634,0.134951,2.89721,0
0.635,0.140534,2.90803,0
0.636,0.14616,2.9189,0
0.637,0.151827,2.92982,0
0.638,0.157533,2.94079,0
0.639,0.163278,2.95181,0
0.64,0.169059,2.96287,0
0.641,0.174875,2.97398,0
0.642,0.180725,2.98514,0
0.643,0.186606,2.99633,0
0.644,0.192518,3.00756,0
0.645,0.198457,3.01883,0
0.646,0.204422,3.03013,0
0.647,0.21041,3.04146,0
0.648,0.21642,3.05282,0
0.649,0.22245,3.0642,0
0.65,0.228496,3.07561,0
0.651,0.234557,3.08703,0
0.652,0.240629,3.09847,0
0.653,0.246712,3.10992,0
0.654,0.252801,3.12139,0
0.655,0.258895,3.13285,0
0.656,0.264991,3.14432,0
0.657,0.271086,3.15579,0
0.658,0.277178,3.16725,0
0.659,0.283264,3.17871,0
0.66,0.289342,3.19016,0
0.661,0.29541,3.20159,0
0.662,0.301464,3.213,0
0.663,0.307502,3.2244,0
0.664,0.313522,3.23577,0
0.665,0.319522,3.24712,0
0.666,0.325499,3.25843,0
0.667,0.331452,3.26972,0
0.668,0.337377,3.28097,0
0.669,0.343274,3.29218,0
0.67,0.349139,3.30335,0
0.671,0.354972,3.31449,0
0.672,0.36077,3.32557,0
0.673,0.366533,3.33662,0
0.674,0.372257,3.34761,0
0.675,0.377943,3.35855,0
0.676,0.383587,3.36945,0
0.677,0.38919,3.38029,0
0.678,0.39475,3.39107,0
0.679,0.400266,3.4018,0
0.68,0.405736,3.41247,0
0.681,0.411161,3.42309,0
0.682,0.416539,3.43364,0
0.683,0.421869,3.44414,0
0.684,0.42715,3.45457,0
0.685,0.432383,3.46495,0
0.686,0.437566,3.47526,0
0.687,0.4427,3.48551,0
0.688,0.447783,3.4957,0
0.689,0.452816,3.50582,0
0.69,0.457798,3.51588,0
0.691,0.462728,3.52588,0
0.692,0.467608,3.53582,0
0.693,0.472436,3.54569,0
0.694,0.477213,3.5555,0
0.695,0.481939,3.56525,0
0.696,0.486613,3.57493,0
0.697,0.491236,3.58455,0
0.698,0.495808,3.59411,0
0.699,0.500329,3.60361,0
0.7,0.504799,3.61305,0
0.701,0.509219,3.62242,0
0.702,0.513588,3.63173,0
0.703,0.517907,3.64099,0
0.704,0.522176,3.65018,0
0.705,0.526396,3.65932,0
0.706,0.530566,3.66839,0
0.707,0.534687,3.67741,0
0.708,0.53876,3.68637,0
0.709,0.542784,3.69527,0
0.71,0.54676,3.70412,0
0.711,0.550689,3.71291,0
0.712,0.55457,3.72164,0
0.713,0.558405,3.73032,0
0.714,0.562194,3.73895,0
0.715,0.565936,3.74752,0
0.716,0.569632,3.75604,0
0.717,0.573284,3.7645,0
0.718,0.576891,3.77292,0
0.719,0.580453,3.78128,0
0.72,0.583971,3.78959,0
0.721,0.587446,3.79785,0
0.722,0.590877,3.80606,0
0.723,0.594266,3.81422,0
0.724,0.597613,3.82234,0
0.725,0.600917,3.8304,0
0.726,0.60418,3.83842,0
0.727,0.607402,3.8464,0
0.728,0.610584,3.85432,0
0.729,0.613725,3.8622,0
0.73,0.616826,3.87004,0
0.731,0.619887,3.87783,0
0.732,0.62291,3.88558,0
0.733,0.625894,3.89328,0
0.734,0.628839,3.90094,0
0.735,0.631747,3.90856,0
0.736,0.634617,3.91614,0
0.737,0.63745,3.92368,0
0.738,0.640247,3.93117,0
0.739,0.643007,3.93863,0
0.74,0.645731,3.94604,0
0.741,0.648419,3.95342,0
0.742,0.651072,3.96076,0
0.743,0.65369,3.96806,0
0.744,0.656274,3.97532,0
0.745,0.658823,3.98254,0
0.746,0.661339,3.98973,0
0.747,0.663821,3.99688,0
0.748,0.666269,4.004,0
0.749,0.668685,4.01108,0
0.75,0.671069,4.01812,0
0.751,0.67342,4.02513,0
0.752,0.67574,4.03211,0
0.753,0.678027,4.03905,0
0.754,0.680284,4.04596,0
0.755,0.68251,4.05283,0
0.756,0.684705,4.05967,0
0.757,0.68687,4.06648,0
0.758,0.689005,4.07326,0
